0.080894
0.919397
0.919397
1.002892
1.110717
1.110717
1.212106
1.212106
1.304398
1.386836
1.386836
1.407605
1.407605
1.521567
1.594569
1.594569
1.659782
1.659782
1.734018
1.766777
1.882608
1.882608
1.938773
1.938773
2.005454
2.148117
2.148117
2.203277
2.271371
2.405886
2.405886
2.428228
2.498048
2.498048
2.662722
2.662722
2.673844
2.681801
2.777772
2.777772
2.831359
2.831359
2.911236
3.057848
3.057848
3.217549
3.241503
3.282937
3.301114
3.301114
3.455320
3.469492
3.469492
3.625320
3.625320
3.630449
3.682043
3.747552
3.747552
3.829914
3.867570
3.867570
3.898484
3.898484
3.909401
3.957541
4.014204
4.020398
4.020398
4.107762
4.113870
4.113870
4.142838
4.142838
4.239686
4.248717
4.248717
4.433693
4.447741
4.447741
4.543712
4.543712
4.653507
4.715465
4.715465
4.773976
5.020985
5.046345
5.046345
5.241654
5.264590
5.264590
5.275404
5.275404
5.334976
5.460121
5.598835
5.624251
5.624251
5.667989
5.681479
5.681479
5.790267
5.841484
5.841484
5.916369
5.916369
5.965201
5.965201
6.150869
6.218523
6.218523
6.294581
6.467872
6.467872
6.657216
6.657216
6.845720
6.845720
6.846407
6.867707
7.018776
7.018776
7.210023
7.382254
7.456372
7.456372
7.554551
7.554551
7.559550
7.822799
8.147196
8.168124
8.281778
8.281778
8.335029
8.339391
8.339391
8.539035
8.539035
8.562705
8.562705
8.583742
8.621274
8.621274
8.760098
8.761537
8.761537
8.770830
8.889622
8.889622
8.985560
8.985560
8.988019
9.055032
9.071415
9.071415
9.090438
9.228161
9.259780
9.275867
9.275867
9.335911
9.338228
9.338228
9.444694
9.444694
9.521029
9.524959
9.524959
9.601409
9.619480
9.619480
9.631940
9.631940
9.726268
9.747556
9.747556
9.763135
9.807188
9.813632
9.813632
9.933877
9.933877
9.940972
9.940972
9.941539
10.066509
10.075848
10.075848
10.108262
10.179793
10.184743
10.184743
10.225268
10.313444
10.313444
10.465030
10.465030
10.474161
10.542305
10.542305
10.585820
10.675315
10.675315
10.715649
10.774171
10.774171
10.881724
10.881724
10.899952
10.899952
10.907989
10.945653
11.093918
11.093918
11.110937
11.110937
11.355726
11.783275
11.807293
23.118401
23.118401
23.209249
23.209249
23.270422
23.270422
23.408348
23.408348
23.444056
23.556495
23.586433
23.760522
23.760522
23.778340
23.778340
24.336478
24.533191
24.533191
24.560364
24.623745
24.667071
24.667071
24.760194
24.773326
24.773326
24.832479
24.837266
24.837266
24.858419
25.084978
25.084978
25.086499
25.181218
25.181218
25.232785
25.232785
25.276144
25.276144
25.285840
25.359787
25.613483
25.613483
25.626632
25.626632
25.907249
25.911763
28.000395
28.000395
28.029619
28.096612
28.096612
28.118255
28.118255
28.180226
28.187369
28.227046
28.227046
28.327984
28.327984
28.338152
28.429600
28.455988
28.455988
28.708949
28.729110
28.907757
29.004391
29.067278
29.067278
29.099433
29.099433
29.237717
